# Time(days) Flux(e/s)
3312.862857 1.131626
3312.865172 1.128704
3312.867487 1.128243
3312.869802 1.124310
3312.872117 1.120455
3312.874431 1.119410
3312.876746 1.114957
3312.879061 1.107134
3312.881376 1.102664
3312.883691 1.090078
3312.886005 1.086167
3312.888320 1.074526
3312.890635 1.069293
3312.892950 1.059228
3312.895265 1.049090
3312.897579 1.036961
3312.899894 1.031420
3312.902209 1.017136
3312.904524 1.005463
3312.906839 0.994930
3312.909153 0.981214
3312.911468 0.963896
3312.913783 0.943349
3312.916098 0.929624
3312.918413 0.902770
3312.920727 0.883274
3312.923042 0.865835
3312.925357 0.842504
3312.927672 0.819399
3312.929987 0.799999
3312.932302 0.791323
3312.934616 0.784521
3312.936931 0.785994
3312.939246 0.782425
3312.941561 0.780206
3312.943876 0.781442
3312.946190 0.783930
3312.948505 0.780585
3312.950820 0.778682
3312.953135 0.779698
3312.955450 0.786039
3312.957764 0.780429
3312.962394 0.776270
3312.964709 0.786970
3312.967024 0.780198
3312.969338 0.800513
3312.971653 0.819059
3312.973968 0.838383
3312.976283 0.861612
3312.978598 0.887532
3312.980912 0.904197
3312.983227 0.923241
3312.985542 0.945451
3312.987857 0.968947
3312.990172 0.986187
3312.992486 1.002551
3312.994801 1.020625
3312.997116 1.028994
3312.999431 1.039940
3313.001746 1.053357
3313.004060 1.064740
3313.006375 1.075049
3313.008690 1.080419
3313.011005 1.088245
3313.013320 1.111932
3313.015635 1.116245
3313.017949 1.115111
3313.020264 1.126506
3313.022579 1.132671
3313.024894 1.137781
3313.027209 1.144583
3313.029523 1.141362
3313.031838 1.147031
3313.034153 1.148887
3313.036468 1.151956
3313.038783 1.156589
3313.041097 1.142054
3313.043412 1.150051
3313.045727 1.142507
3313.048042 1.138412
3313.050357 1.134991
3313.052671 1.126678
3313.054986 1.122064
3313.057301 1.112604
3313.059616 1.097307
3313.061931 1.092167
3313.064245 1.090363
3313.066560 1.079535
3313.068875 1.060090
3313.071190 1.048813
3313.073505 1.040510
3313.075819 1.023491
3313.078134 1.008590
3313.080449 0.983843
3313.082764 0.965728
3313.085079 0.959823
3313.087393 0.942797
3313.089708 0.917507
3313.092023 0.894453
3313.094338 0.869530
3313.096653 0.850273
3313.098968 0.825516
3313.101282 0.813024
3313.103597 0.806747
3313.105912 0.799065
3313.108227 0.798287
3313.110542 0.788234
3313.112856 0.787346
3313.115171 0.794412
3313.117486 0.789231
3313.119801 0.791711
3313.122116 0.787381
3313.124430 0.787854
3313.126745 0.791484
3313.129060 0.792536
3313.131375 0.794937
3313.133690 0.797994
3313.136004 0.804340
3313.138319 0.819722
3313.140634 0.836368
3313.142949 0.854672
3313.145264 0.868254
3313.147578 0.889858
3313.149893 0.912421
3313.152208 0.925155
3313.154523 0.941450
3313.156838 0.968352
3313.159152 0.985095
3313.161467 0.995215
3313.163782 1.010557
3313.166097 1.025791
3313.168412 1.034752
3313.170726 1.048748
3313.173041 1.059348
3313.175356 1.075461
3313.177671 1.082921
3313.179986 1.086338
3313.182300 1.097160
3313.184615 1.102926
3313.186930 1.110842
3313.189245 1.117270
3313.191560 1.117165
3313.193875 1.130016
3313.196189 1.125156
3313.198504 1.134844
3313.200819 1.132839
3313.203134 1.130906
3313.205449 1.134107
3313.207763 1.131557
3313.210078 1.128494
3313.212393 1.129070
3313.214708 1.115500
3313.217023 1.113206
3313.219337 1.111383
3313.221652 1.092488
3313.223967 1.092116
3313.226282 1.081830
3313.228597 1.077719
3313.230911 1.060559
3313.233226 1.061864
3313.235541 1.040672
3313.237856 1.039418
3313.240171 1.024251
3313.242485 1.016827
3313.244800 1.002431
3313.247115 0.989938
3313.249430 0.979505
3313.251745 0.959164
3313.254059 0.941527
3313.256374 0.923136
3313.258689 0.894537
3313.261004 0.873081
3313.263319 0.849839
3313.265633 0.830996
3313.267948 0.814761
3313.270263 0.794641
3313.272578 0.785874
3313.274893 0.783274
3313.277207 0.787724
3313.279522 0.783585
3313.281837 0.782483
3313.284152 0.781925
3313.286467 0.781893
3313.288782 0.782688
3313.291096 0.783208
3313.293411 0.780349
3313.295726 0.774964
3313.298041 0.784803
3313.300356 0.782246
3313.302670 0.781432
3313.304985 0.785746
3313.307300 0.789776
3313.309615 0.802365
3313.311930 0.827535
3313.314244 0.842392
3313.316559 0.869352
3313.318874 0.892147
3313.321189 0.914025
3313.323504 0.941647
3313.325818 0.959180
3313.328133 0.974528
3313.330448 0.992527
3313.332763 1.004464
3313.335078 1.021500
3313.337392 1.033241
3313.339707 1.047895
3313.342022 1.054817
3313.344337 1.069622
3313.346652 1.074533
3313.348966 1.090345
3313.351281 1.095847
3313.353596 1.105701
3313.355911 1.110629
3313.358226 1.126738
3313.360540 1.127331
3313.362855 1.138329
3313.365170 1.144212
3313.367485 1.144217
3313.369800 1.142701
3313.372114 1.152450
3313.374429 1.151146
3313.376744 1.156894
3313.379059 1.148835
3313.381374 1.157506
3313.383688 1.148893
3313.386003 1.146037
3313.388318 1.140180
3313.390633 1.135118
3313.392948 1.127471
3313.395262 1.121967
3313.397577 1.113145
3313.399892 1.099264
3313.402207 1.099249
3313.404522 1.084954
3313.406836 1.075268
3313.409151 1.064743
3313.411466 1.054551
3313.413781 1.028362
3313.416096 1.020751
3313.418411 1.011736
3313.420725 0.988619
3313.423040 0.968564
3313.425355 0.946571
3313.427670 0.931891
3313.429985 0.903538
3313.432299 0.886015
3313.434614 0.860829
3313.436929 0.848838
3313.439244 0.831729
3313.441559 0.802875
3313.443873 0.803982
3313.446188 0.805051
3313.448503 0.794559
3313.450818 0.805824
3313.453133 0.796881
3313.455447 0.800848
3313.457762 0.795948
3313.460077 0.797827
3313.462392 0.791751
3313.464707 0.791873
3313.467021 0.794063
3313.469336 0.795235
3313.471651 0.802099
3313.473966 0.796476
3313.476281 0.815577
3313.478595 0.835682
3313.480910 0.844239
3313.483225 0.858970
3313.485540 0.879834
3313.487855 0.896982
3313.490169 0.924428
3313.492484 0.941464
3313.494799 0.948879
3313.497114 0.972269
3313.499429 0.987574
3313.501743 1.009728
3313.504058 1.017848
3313.506373 1.037096
3313.508688 1.058813
3313.511003 1.054096
3313.513317 1.068976
3313.515632 1.084355
3313.517947 1.090728
3313.520262 1.099784
3313.522577 1.096188
3313.524891 1.113143
3313.527206 1.123217
3313.529521 1.122412
3313.531836 1.125738
3313.534151 1.134914
3313.536465 1.137956
3313.538780 1.140844
3313.541095 1.142614
3313.543410 1.140340
3313.545725 1.143851
3313.548039 1.138604
3313.550354 1.132100
3313.552669 1.125465
3313.554984 1.126094
3313.557299 1.116290
3313.559614 1.107109
3313.561928 1.115612
3313.564243 1.102573
3313.566558 1.090071
3313.568873 1.088710
3313.571188 1.068922
3313.573502 1.060834
3313.575817 1.060112
3313.578132 1.038088
3313.580447 1.036988
3313.582762 1.023696
3313.585076 1.009192
3313.587391 1.000055
3313.589706 0.978218
3313.592021 0.964419
3313.594336 0.957515
3313.596650 0.924847
3313.598965 0.900928
3313.601280 0.876824
3313.603595 0.859773
3313.605910 0.833316
3313.608224 0.816576
3313.610539 0.804369
3313.612854 0.803476
3313.615169 0.805840
3313.617484 0.799189
3313.619798 0.786694
3313.622113 0.795816
3313.624428 0.800861
3313.626743 0.781544
3313.629058 0.792914
3313.631372 0.789761
3313.633687 0.788095
3313.636002 0.791998
3313.638317 0.796991
3313.640632 0.805260
3313.642946 0.789798
3313.645261 0.791761
3313.647576 0.803836
3313.649891 0.821798
3313.652206 0.853713
3313.654520 0.865629
3313.656835 0.891970
3313.659150 0.915362
3313.661465 0.931070
3313.663780 0.957878
3313.666094 0.981741
3313.668409 0.993571
3313.670724 1.009167
3313.673039 1.028626
3313.675354 1.032819
3313.677668 1.051470
3313.679983 1.056008
3313.682298 1.074507
3313.684613 1.084554
3313.686928 1.090698
3313.689242 1.098786
3313.691557 1.110375
3313.693872 1.123110
3313.696187 1.134004
3313.698502 1.134316
3313.700816 1.132946
3313.703131 1.144678
3313.705446 1.154375
3313.707761 1.158098
3313.710076 1.158956
3313.712390 1.156320
3313.714705 1.168349
3313.717020 1.166575
3313.719335 1.161976
3313.721650 1.152452
3313.723965 1.160115
3313.726279 1.146698
3313.728594 1.147743
3313.730909 1.141441
3313.733224 1.135765
3313.735539 1.129542
3313.737853 1.115470
3313.740168 1.111669
3313.742483 1.095480
3313.744798 1.090260
3313.747113 1.068613
3313.749427 1.063110
3313.751742 1.051975
3313.754057 1.035157
3313.756372 1.020188
3313.758687 1.002690
3313.761001 0.988048
3313.763316 0.957014
3313.765631 0.937773
3313.767946 0.927188
3313.770261 0.903785
3313.772575 0.893838
3313.774890 0.878477
3313.777205 0.845118
3313.779520 0.828684
3313.781835 0.815071
3313.784149 0.823451
3313.786464 0.802083
3313.788779 0.806949
3313.791094 0.792080
3313.793409 0.798131
3313.795723 0.808855
3313.798038 0.793945
3313.800353 0.801724
3313.802668 0.794822
3313.804983 0.793921
3313.807297 0.806984
3313.809612 0.820167
3313.811927 0.803772
3313.814242 0.807149
3313.816557 0.818662
3313.818871 0.829781
3313.821186 0.857223
3313.823501 0.884032
3313.825816 0.900091
3313.828131 0.925187
3313.830445 0.929631
3313.832760 0.948640
3313.835075 0.976097
3313.837390 0.991935
3313.839705 1.008563
3313.842019 1.020754
3313.844334 1.026569
3313.846649 1.044377
3313.848964 1.062217
3313.851279 1.060276
3313.853593 1.087768
3313.855908 1.082697
3313.858223 1.097761
3313.860538 1.106521
3313.862853 1.113154
3313.865167 1.117287
3313.867482 1.117561
3313.869797 1.128552
3313.872112 1.130773
3313.874427 1.139279
3313.876741 1.136898
3313.879056 1.141900
3313.881371 1.140450
3313.883686 1.140579
3313.886001 1.144948
3313.888315 1.130162
3313.890630 1.143560
3313.892945 1.123919
3313.895260 1.114526
3313.897575 1.117683
3313.899889 1.105488
3313.902204 1.105112
3313.904519 1.093341
3313.906834 1.087963
3313.909149 1.066795
3313.911464 1.071214
3313.913778 1.065640
3313.916093 1.050794
3313.918408 1.039150
3313.920723 1.016683
3313.923038 1.006035
3313.925352 1.000328
3313.927667 0.982855
3313.929982 0.967690
3313.932297 0.952817
3313.934612 0.931416
3313.936926 0.914452
3313.939241 0.895611
3313.941556 0.871875
3313.943871 0.844963
3313.946186 0.831794
3313.948500 0.805122
3313.950815 0.788631
3313.953130 0.798551
3313.955445 0.799275
3313.957760 0.793742
3313.960074 0.795741
3313.962389 0.785330
3313.964704 0.800644
3313.967019 0.799684
3313.969334 0.799775
3313.971648 0.788815
3313.973963 0.790280
3313.976278 0.786682
3313.978593 0.793111
3313.980908 0.786218
3313.983222 0.792619
3313.985537 0.790929
3313.987852 0.811462
3313.990167 0.821751
3313.992482 0.851549
3313.994796 0.877446
3313.997111 0.898001
3313.999426 0.923365
3314.001741 0.937583
3314.004056 0.952614
3314.006370 0.981382
3314.008685 1.000298
3314.011000 0.998076
3314.013315 1.006210
3314.015630 1.043239
3314.017944 1.050667
3314.020259 1.067576
3314.022574 1.069506
3314.024889 1.074653
3314.027204 1.093791
3314.029518 1.101498
3314.031833 1.106143
3314.034148 1.112904
3314.036463 1.124687
3314.038778 1.139140
3314.041092 1.137404
3314.043407 1.146460
3314.045722 1.159616
3314.048037 1.152202
3314.050352 1.161441
3314.052666 1.162558
3314.054981 1.148980
3314.057296 1.161120
3314.059611 1.162008
3314.061926 1.157659
3314.064240 1.143722
3314.066555 1.149838
3314.068870 1.141995
3314.071185 1.134581
3314.073500 1.123276
3314.075814 1.124151
3314.078129 1.126157
3314.080444 1.091622
3314.082759 1.088079
3314.085074 1.069264
3314.087388 1.066247
3314.089703 1.047042
3314.092018 1.033077
3314.094333 1.025294
3314.096648 1.014614
3314.098962 0.987319
3314.101277 0.982568
3314.103592 0.953740
3314.105907 0.939043
3314.108222 0.908100
3314.110536 0.899282
3314.112851 0.869544
3314.115166 0.851981
3314.117481 0.829280
3314.119796 0.812773
3314.122111 0.810138
3314.124425 0.810817
3314.126740 0.805982
3314.129055 0.805364
3314.131370 0.800047
3314.133685 0.800331
3314.135999 0.795681
3314.138314 0.796067
3314.140629 0.797389
3314.142944 0.791295
3314.145259 0.797494
3314.147573 0.792346
3314.149888 0.809704
3314.152203 0.809546
3314.154518 0.806118
3314.156833 0.827576
3314.159147 0.843302
3314.161462 0.860060
3314.163777 0.883127
3314.166092 0.898968
3314.168407 0.916577
3314.170721 0.937610
3314.173036 0.957871
3314.175351 0.975926
3314.177666 0.989628
3314.179981 0.993332
3314.182295 1.014057
3314.184610 1.028056
3314.186925 1.045861
3314.189240 1.054564
3314.191555 1.069182
3314.193869 1.065490
3314.196184 1.088993
3314.198499 1.099145
3314.200814 1.101643
3314.203129 1.103189
3314.205443 1.114274
3314.207758 1.134626
3314.210073 1.127288
3314.212388 1.128906
3314.214703 1.122805
3314.217017 1.137526
3314.219332 1.121804
3314.221647 1.133608
3314.223962 1.137711
3314.226277 1.121037
3314.228591 1.134884
3314.230906 1.131942
3314.233221 1.114613
3314.235536 1.114482
3314.237851 1.105533
3314.240165 1.102066
3314.242480 1.097148
3314.244795 1.080821
3314.247110 1.072879
3314.249425 1.069356
3314.251739 1.068092
3314.254054 1.058182
3314.256369 1.046719
3314.258684 1.026743
3314.260999 1.022438
3314.263313 1.014664
3314.265628 0.994570
3314.267943 0.977402
3314.270258 0.967321
3314.272573 0.950346
3314.274887 0.924494
3314.277202 0.901517
3314.279517 0.881056
3314.281832 0.854127
3314.284147 0.835943
3314.286461 0.824772
3314.288776 0.797861
3314.291091 0.793085
3314.293406 0.800334
3314.295721 0.788684
3314.298035 0.792346
3314.300350 0.785715
3314.302665 0.797423
3314.304980 0.793567
3314.307295 0.793787
3314.309609 0.790589
3314.311924 0.786045
3314.314239 0.786171
3314.316554 0.789330
3314.318869 0.802431
3314.321184 0.779260
3314.323498 0.796636
3314.325813 0.801305
3314.328128 0.817628
3314.330443 0.837605
3314.332758 0.858627
3314.335072 0.881833
3314.337387 0.905499
3314.339702 0.930162
3314.342017 0.943419
3314.344332 0.973986
3314.346646 0.990279
3314.348961 1.003523
3314.351276 1.009833
3314.353591 1.035633
3314.355906 1.040391
3314.358220 1.048565
3314.360535 1.063115
3314.362850 1.079579
3314.365165 1.088655
3314.367480 1.093702
3314.369794 1.111919
3314.372109 1.114991
3314.374424 1.123141
3314.376739 1.127889
3314.379054 1.136685
3314.381368 1.148164
3314.383683 1.152496
3314.385998 1.154870
3314.388313 1.157855
3314.390628 1.155157
3314.392942 1.151945
3314.395257 1.157839
3314.397572 1.158095
3314.399887 1.161997
3314.402202 1.155424
3314.404516 1.147491
3314.406831 1.148361
3314.409146 1.147101
3314.411461 1.132846
3314.413776 1.120530
3314.416090 1.122795
3314.418405 1.103895
3314.420720 1.085836
3314.423035 1.088653
3314.425350 1.071169
3314.427664 1.066193
3314.429979 1.049905
3314.432294 1.033123
3314.434609 1.022699
3314.436924 1.002446
3314.439238 0.985044
3314.441553 0.968280
3314.443868 0.959414
3314.446183 0.921328
3314.448498 0.905491
3314.450812 0.882257
3314.453127 0.870134
3314.455442 0.848588
3314.457757 0.823225
3314.460072 0.807218
3314.462386 0.805596
3314.464701 0.806692
3314.467016 0.807116
3314.469331 0.796669
3314.471646 0.787754
3314.473960 0.798351
3314.476275 0.793371
3314.478590 0.796141
3314.480905 0.791864
3314.483220 0.795535
3314.485534 0.789338
3314.487849 0.801682
3314.490164 0.798469
3314.492479 0.808899
3314.494794 0.809242
3314.497108 0.823212
3314.499423 0.837723
3314.501738 0.859990
3314.504053 0.881782
3314.506368 0.903763
3314.508682 0.926225
3314.510997 0.937989
3314.513312 0.948862
3314.515627 0.978135
3314.517942 1.001650
3314.520257 1.009067
3314.522571 1.019482
3314.524886 1.031822
3314.527201 1.053049
3314.529516 1.052715
3314.531831 1.067538
3314.534145 1.080130
3314.536460 1.094465
3314.538775 1.097738
3314.541090 1.105848
3314.543405 1.111166
3314.545719 1.111802
3314.548034 1.128058
3314.550349 1.134282
3314.552664 1.124506
3314.554979 1.128070
3314.557293 1.132429
3314.559608 1.140717
3314.561923 1.135567
3314.564238 1.136803
3314.566553 1.136992
3314.568867 1.130388
3314.571182 1.123132
3314.573497 1.116351
3314.575812 1.103611
3314.578127 1.104196
3314.580441 1.099204
3314.582756 1.098799
3314.585071 1.081357
3314.587386 1.078302
3314.589701 1.062115
3314.592015 1.063144
3314.594330 1.050210
3314.596645 1.035779
3314.598960 1.028962
3314.601275 1.015389
3314.603589 1.003991
3314.605904 0.985077
3314.608219 0.980540
3314.610534 0.955122
3314.612849 0.941037
3314.615163 0.913829
3314.617478 0.894526
3314.619793 0.870426
3314.622108 0.853041
3314.624423 0.837902
3314.626737 0.810002
3314.629052 0.804184
3314.631367 0.795174
3314.633682 0.790417
3314.635997 0.798600
3314.638311 0.793058
3314.640626 0.788687
3314.642941 0.790950
3314.645256 0.788336
3314.647571 0.789569
3314.649885 0.787313
3314.652200 0.785712
3314.654515 0.793154
3314.656830 0.787270
3314.659145 0.797478
3314.661459 0.799264
3314.663774 0.789811
3314.666089 0.800606
3314.668404 0.819530
3314.670719 0.831754
3314.673033 0.868125
3314.675348 0.889253
3314.677663 0.910774
3314.679978 0.929850
3314.682293 0.947028
3314.684607 0.973484
3314.686922 0.996689
3314.689237 1.019166
3314.691552 1.015084
3314.693867 1.034062
3314.696182 1.049545
3314.698496 1.062629
3314.700811 1.066837
3314.703126 1.081303
3314.705441 1.096990
3314.707756 1.099525
3314.710070 1.105355
3314.712385 1.128530
3314.714700 1.129952
3314.717015 1.140874
3314.719330 1.132537
3314.721644 1.146850
3314.723959 1.146494
3314.726274 1.153909
3314.728589 1.154444
3314.730904 1.147478
3314.733218 1.157536
3314.735533 1.162824
3314.737848 1.157134
3314.740163 1.150157
3314.742478 1.145936
3314.744792 1.144142
3314.747107 1.140860
3314.749422 1.139711
3314.751737 1.124566
3314.754052 1.117838
3314.756366 1.115590
3314.758681 1.106309
3314.760996 1.093159
3314.763311 1.082407
3314.765626 1.079656
3314.767940 1.059203
3314.770255 1.051747
3314.772570 1.030509
3314.774885 1.016698
3314.777200 0.999797
3314.779514 0.976048
3314.781829 0.966885
3314.784144 0.947055
3314.786459 0.918713
3314.788774 0.890990
3314.791088 0.884694
3314.793403 0.855659
3314.795718 0.839341
3314.798033 0.816737
3314.800348 0.806260
3314.802662 0.803971
3314.804977 0.798452
3314.807292 0.797050
3314.809607 0.794739
3314.811922 0.790900
3314.814236 0.786330
3314.816551 0.795835
3314.818866 0.792869
3314.821181 0.789149
3314.823496 0.786639
3314.825810 0.799478
3314.828125 0.787605
3314.830440 0.801348
3314.832755 0.799488
3314.835070 0.818213
3314.837384 0.833226
3314.839699 0.849705
3314.842014 0.869630
3314.844329 0.889358
3314.846644 0.910618
3314.848959 0.927849
3314.851273 0.943838
3314.853588 0.957400
3314.855903 0.983134
3314.858218 1.000495
3314.860533 1.013891
3314.862847 1.018912
3314.865162 1.028854
3314.867477 1.053057
3314.869792 1.063552
3314.872107 1.068262
3314.874421 1.079749
3314.876736 1.090325
3314.879051 1.094827
3314.881366 1.102148
3314.883681 1.112898
3314.885995 1.128288
3314.888310 1.125751
3314.890625 1.126836
3314.892940 1.129618
3314.895255 1.129635
3314.897569 1.131649
3314.899884 1.136744
3314.902199 1.130025
3314.904514 1.131580
3314.906829 1.136952
3314.909143 1.129759
3314.911458 1.121487
3314.913773 1.121724
3314.916088 1.120114
3314.918403 1.107369
3314.920717 1.104385
3314.923032 1.090538
3314.925347 1.085385
3314.927662 1.075383
3314.929977 1.066480
3314.932291 1.052351
3314.934606 1.040720
3314.936921 1.033153
3314.939236 1.025287
3314.941551 1.014163
3314.943865 1.003193
3314.946180 0.984222
3314.948495 0.972087
3314.950810 0.950472
3314.953125 0.930316
3314.955439 0.910775
3314.957754 0.878560
3314.960069 0.862815
3314.962384 0.841544
3314.964699 0.823288
3314.967013 0.795297
3314.969328 0.797064
3314.971643 0.795598
3314.973958 0.796518
3314.976273 0.793095
3314.978587 0.786038
3314.980902 0.796961
3314.983217 0.793830
3314.985532 0.792019
3314.987847 0.787703
3314.990162 0.788698
3314.992476 0.785060
3314.994791 0.795915
3314.997106 0.795919
3314.999421 0.789554
3315.001736 0.796665
3315.004050 0.797066
3315.006365 0.809297
3315.008680 0.825908
3315.010995 0.850328
3315.013310 0.878041
3315.015624 0.895466
3315.017939 0.915991
3315.020254 0.941014
3315.022569 0.967861
3315.024884 0.982346
3315.027198 0.998083
3315.029513 1.014259
3315.031828 1.038187
3315.034143 1.039696
3315.036458 1.052233
3315.038772 1.060260
3315.041087 1.067531
3315.043402 1.087343
3315.045717 1.103020
3315.048032 1.103576
3315.050346 1.116236
3315.052661 1.120998
3315.054976 1.136814
3315.057291 1.138611
3315.059606 1.140182
3315.061920 1.148829
3315.064235 1.143978
